Time	[A]	[B]	[C]
0	1e-006	1e-005	0
0.001	1.18573e-006	9.67041e-006	1.43854e-007
0.002	1.36326e-006	9.36072e-006	2.7602e-007
0.003	1.53305e-006	9.06961e-006	3.97347e-007
0.004	1.69552e-006	8.79585e-006	5.08627e-007
0.005	1.8511e-006	8.5383e-006	6.10596e-007
0.006	2.00016e-006	8.29591e-006	7.03937e-007
0.007	2.14305e-006	8.06767e-006	7.89284e-007
0.008	2.28011e-006	7.85266e-006	8.67228e-007
0.009	2.41166e-006	7.65003e-006	9.38319e-007
0.01	2.53797e-006	7.45896e-006	1.00306e-006
0.011	2.65934e-006	7.27872e-006	1.06193e-006
0.012	2.77602e-006	7.10861e-006	1.11537e-006
0.013	2.88824e-006	6.94798e-006	1.16378e-006
0.014	2.99624e-006	6.7962e-006	1.20755e-006
0.015	3.10024e-006	6.65274e-006	1.24703e-006
0.016	3.20041e-006	6.51705e-006	1.28254e-006
0.017	3.29697e-006	6.38865e-006	1.31438e-006
0.018	3.39008e-006	6.26707e-006	1.34285e-006
0.019	3.4799e-006	6.1519e-006	1.36819e-006
0.02	3.56661e-006	6.04273e-006	1.39066e-006
0.021	3.65033e-006	5.93919e-006	1.41048e-006
0.022	3.73121e-006	5.84093e-006	1.42786e-006
0.023	3.80938e-006	5.74763e-006	1.44299e-006
0.024	3.88497e-006	5.65899e-006	1.45605e-006
0.025	3.95808e-006	5.57471e-006	1.4672e-006
0.026	4.02883e-006	5.49455e-006	1.47662e-006
0.027	4.09732e-006	5.41826e-006	1.48442e-006
0.028	4.16365e-006	5.34559e-006	1.49076e-006
0.029	4.2279e-006	5.27634e-006	1.49576e-006
0.03	4.29017e-006	5.21032e-006	1.49951e-006
0.031	4.35054e-006	5.14732e-006	1.50215e-006
0.032	4.40908e-006	5.08717e-006	1.50375e-006
0.033	4.46587e-006	5.02972e-006	1.50442e-006
0.034	4.52097e-006	4.9748e-006	1.50423e-006
0.035	4.57446e-006	4.92228e-006	1.50326e-006
0.036	4.62639e-006	4.87201e-006	1.50159e-006
0.037	4.67683e-006	4.82388e-006	1.49928e-006
0.038	4.72583e-006	4.77777e-006	1.4964e-006
0.039	4.77344e-006	4.73356e-006	1.493e-006
0.04	4.81972e-006	4.69116e-006	1.48912e-006
0.041	4.86471e-006	4.65046e-006	1.48483e-006
0.042	4.90846e-006	4.61137e-006	1.48017e-006
0.043	4.95101e-006	4.57382e-006	1.47517e-006
0.044	4.9924e-006	4.53772e-006	1.46988e-006
0.045	5.03268e-006	4.50299e-006	1.46433e-006
0.046	5.07188e-006	4.46957e-006	1.45855e-006
0.047	5.11004e-006	4.43739e-006	1.45257e-006
0.048	5.14719e-006	4.40639e-006	1.44642e-006
0.049	5.18336e-006	4.37651e-006	1.44013e-006
0.05	5.21859e-006	4.3477e-006	1.43371e-006
0.051	5.25291e-006	4.3199e-006	1.42719e-006
0.052	5.28634e-006	4.29307e-006	1.42059e-006
0.053	5.31891e-006	4.26716e-006	1.41393e-006
0.054	5.35066e-006	4.24212e-006	1.40722e-006
0.055	5.38159e-006	4.21793e-006	1.40048e-006
0.056	5.41175e-006	4.19454e-006	1.39371e-006
0.057	5.44115e-006	4.17191e-006	1.38695e-006
0.058	5.46981e-006	4.15001e-006	1.38018e-006
0.059	5.49776e-006	4.12881e-006	1.37343e-006
0.06	5.52501e-006	4.10828e-006	1.36671e-006
0.061	5.5516e-006	4.08839e-006	1.36001e-006
0.062	5.57752e-006	4.06912e-006	1.35336e-006
0.063	5.60282e-006	4.05043e-006	1.34675e-006
0.064	5.62749e-006	4.03231e-006	1.3402e-006
0.065	5.65156e-006	4.01473e-006	1.3337e-006
0.066	5.67505e-006	3.99767e-006	1.32727e-006
0.067	5.69798e-006	3.98112e-006	1.32091e-006
0.068	5.72034e-006	3.96504e-006	1.31462e-006
0.069	5.74218e-006	3.94943e-006	1.3084e-006
0.07	5.76348e-006	3.93426e-006	1.30226e-006
0.071	5.78428e-006	3.91952e-006	1.2962e-006
0.072	5.80458e-006	3.90519e-006	1.29023e-006
0.073	5.8244e-006	3.89126e-006	1.28433e-006
0.074	5.84375e-006	3.87772e-006	1.27853e-006
0.075	5.86264e-006	3.86455e-006	1.27281e-006
0.076	5.88108e-006	3.85173e-006	1.26719e-006
0.077	5.89909e-006	3.83926e-006	1.26165e-006
0.078	5.91667e-006	3.82713e-006	1.2562e-006
0.079	5.93385e-006	3.81531e-006	1.25084e-006
0.08	5.95061e-006	3.80381e-006	1.24557e-006
0.081	5.96699e-006	3.79261e-006	1.2404e-006
0.082	5.98298e-006	3.78171e-006	1.23531e-006
0.083	5.9986e-006	3.77108e-006	1.23032e-006
0.084	6.01386e-006	3.76073e-006	1.22541e-006
0.085	6.02876e-006	3.75065e-006	1.2206e-006
0.086	6.04331e-006	3.74082e-006	1.21587e-006
0.087	6.05753e-006	3.73124e-006	1.21124e-006
0.088	6.07141e-006	3.7219e-006	1.20669e-006
0.089	6.08498e-006	3.7128e-006	1.20222e-006
0.09	6.09823e-006	3.70393e-006	1.19785e-006
0.091	6.11117e-006	3.69527e-006	1.19356e-006
0.092	6.12382e-006	3.68683e-006	1.18935e-006
0.093	6.13617e-006	3.6786e-006	1.18523e-006
0.094	6.14824e-006	3.67058e-006	1.18118e-006
0.095	6.16003e-006	3.66275e-006	1.17722e-006
0.096	6.17155e-006	3.65511e-006	1.17334e-006
0.097	6.18281e-006	3.64765e-006	1.16954e-006
0.098	6.1938e-006	3.64038e-006	1.16582e-006
0.099	6.20455e-006	3.63328e-006	1.16217e-006
0.1	6.21504e-006	3.62636e-006	1.1586e-006
0.101	6.2253e-006	3.6196e-006	1.1551e-006
0.102	6.23532e-006	3.613e-006	1.15168e-006
0.103	6.24512e-006	3.60656e-006	1.14832e-006
0.104	6.25469e-006	3.60027e-006	1.14504e-006
0.105	6.26404e-006	3.59414e-006	1.14183e-006
0.106	6.27317e-006	3.58815e-006	1.13868e-006
0.107	6.2821e-006	3.5823e-006	1.1356e-006
0.108	6.29082e-006	3.57659e-006	1.13259e-006
0.109	6.29935e-006	3.57101e-006	1.12964e-006
0.11	6.30768e-006	3.56556e-006	1.12676e-006
0.111	6.31582e-006	3.56025e-006	1.12393e-006
0.112	6.32377e-006	3.55506e-006	1.12117e-006
0.113	6.33155e-006	3.54999e-006	1.11847e-006
0.114	6.33914e-006	3.54503e-006	1.11582e-006
0.115	6.34657e-006	3.5402e-006	1.11324e-006
0.116	6.35382e-006	3.53547e-006	1.1107e-006
0.117	6.36091e-006	3.53086e-006	1.10823e-006
0.118	6.36784e-006	3.52635e-006	1.10581e-006
0.119	6.37461e-006	3.52195e-006	1.10344e-006
0.12	6.38123e-006	3.51765e-006	1.10112e-006
0.121	6.38769e-006	3.51345e-006	1.09886e-006
0.122	6.39401e-006	3.50935e-006	1.09664e-006
0.123	6.40019e-006	3.50534e-006	1.09447e-006
0.124	6.40622e-006	3.50143e-006	1.09235e-006
0.125	6.41212e-006	3.4976e-006	1.09028e-006
0.126	6.41789e-006	3.49386e-006	1.08825e-006
0.127	6.42352e-006	3.49021e-006	1.08627e-006
0.128	6.42902e-006	3.48664e-006	1.08433e-006
0.129	6.43441e-006	3.48316e-006	1.08244e-006
0.13	6.43966e-006	3.47975e-006	1.08058e-006
0.131	6.4448e-006	3.47643e-006	1.07877e-006
0.132	6.44983e-006	3.47318e-006	1.077e-006
0.133	6.45473e-006	3.47e-006	1.07526e-006
0.134	6.45953e-006	3.4669e-006	1.07357e-006
0.135	6.46422e-006	3.46386e-006	1.07191e-006
0.136	6.4688e-006	3.4609e-006	1.07029e-006
0.137	6.47328e-006	3.45801e-006	1.06871e-006
0.138	6.47766e-006	3.45518e-006	1.06716e-006
0.139	6.48194e-006	3.45241e-006	1.06565e-006
0.14	6.48612e-006	3.44971e-006	1.06417e-006
0.141	6.4902e-006	3.44707e-006	1.06272e-006
0.142	6.4942e-006	3.44449e-006	1.06131e-006
0.143	6.4981e-006	3.44197e-006	1.05993e-006
0.144	6.50191e-006	3.43951e-006	1.05858e-006
0.145	6.50564e-006	3.4371e-006	1.05726e-006
0.146	6.50929e-006	3.43475e-006	1.05596e-006
0.147	6.51285e-006	3.43245e-006	1.0547e-006
0.148	6.51633e-006	3.4302e-006	1.05347e-006
0.149	6.51973e-006	3.42801e-006	1.05226e-006
0.15	6.52305e-006	3.42586e-006	1.05108e-006
0.151	6.5263e-006	3.42377e-006	1.04993e-006
0.152	6.52948e-006	3.42172e-006	1.0488e-006
0.153	6.53258e-006	3.41972e-006	1.0477e-006
0.154	6.53562e-006	3.41776e-006	1.04662e-006
0.155	6.53858e-006	3.41585e-006	1.04557e-006
0.156	6.54148e-006	3.41398e-006	1.04454e-006
0.157	6.54431e-006	3.41215e-006	1.04353e-006
0.158	6.54708e-006	3.41037e-006	1.04255e-006
0.159	6.54979e-006	3.40862e-006	1.04159e-006
0.16	6.55243e-006	3.40692e-006	1.04065e-006
0.161	6.55501e-006	3.40525e-006	1.03973e-006
0.162	6.55754e-006	3.40362e-006	1.03883e-006
0.163	6.56001e-006	3.40203e-006	1.03796e-006
0.164	6.56242e-006	3.40048e-006	1.0371e-006
0.165	6.56478e-006	3.39896e-006	1.03626e-006
0.166	6.56709e-006	3.39747e-006	1.03544e-006
0.167	6.56934e-006	3.39602e-006	1.03464e-006
0.168	6.57154e-006	3.3946e-006	1.03386e-006
0.169	6.57369e-006	3.39321e-006	1.03309e-006
0.17	6.5758e-006	3.39186e-006	1.03235e-006
0.171	6.57785e-006	3.39053e-006	1.03161e-006
0.172	6.57986e-006	3.38924e-006	1.0309e-006
0.173	6.58182e-006	3.38797e-006	1.0302e-006
0.174	6.58374e-006	3.38674e-006	1.02952e-006
0.175	6.58562e-006	3.38553e-006	1.02885e-006
0.176	6.58745e-006	3.38435e-006	1.0282e-006
0.177	6.58924e-006	3.38319e-006	1.02756e-006
0.178	6.591e-006	3.38207e-006	1.02694e-006
0.179	6.59271e-006	3.38096e-006	1.02633e-006
0.18	6.59438e-006	3.37989e-006	1.02573e-006
0.181	6.59602e-006	3.37883e-006	1.02515e-006
0.182	6.59761e-006	3.3778e-006	1.02458e-006
0.183	6.59918e-006	3.3768e-006	1.02403e-006
0.184	6.6007e-006	3.37581e-006	1.02349e-006
0.185	6.60219e-006	3.37485e-006	1.02295e-006
0.186	6.60365e-006	3.37391e-006	1.02243e-006
0.187	6.60508e-006	3.37299e-006	1.02193e-006
0.188	6.60647e-006	3.3721e-006	1.02143e-006
0.189	6.60783e-006	3.37122e-006	1.02095e-006
0.19	6.60916e-006	3.37036e-006	1.02047e-006
0.191	6.61047e-006	3.36952e-006	1.02001e-006
0.192	6.61174e-006	3.36871e-006	1.01956e-006
0.193	6.61298e-006	3.36791e-006	1.01912e-006
0.194	6.61419e-006	3.36712e-006	1.01868e-006
0.195	6.61538e-006	3.36636e-006	1.01826e-006
0.196	6.61654e-006	3.36561e-006	1.01785e-006
0.197	6.61767e-006	3.36488e-006	1.01744e-006
0.198	6.61878e-006	3.36417e-006	1.01705e-006
0.199	6.61987e-006	3.36347e-006	1.01666e-006
0.2	6.62092e-006	3.36279e-006	1.01629e-006
0.201	6.62196e-006	3.36212e-006	1.01592e-006
0.202	6.62297e-006	3.36147e-006	1.01556e-006
0.203	6.62396e-006	3.36083e-006	1.01521e-006
0.204	6.62492e-006	3.36021e-006	1.01486e-006
0.205	6.62587e-006	3.3596e-006	1.01453e-006
0.206	6.62679e-006	3.35901e-006	1.0142e-006
0.207	6.62769e-006	3.35843e-006	1.01388e-006
0.208	6.62858e-006	3.35786e-006	1.01356e-006
0.209	6.62944e-006	3.35731e-006	1.01326e-006
0.21	6.63028e-006	3.35676e-006	1.01296e-006
0.211	6.6311e-006	3.35623e-006	1.01266e-006
0.212	6.63191e-006	3.35572e-006	1.01238e-006
0.213	6.63269e-006	3.35521e-006	1.0121e-006
0.214	6.63346e-006	3.35471e-006	1.01182e-006
0.215	6.63421e-006	3.35423e-006	1.01156e-006
0.216	6.63495e-006	3.35376e-006	1.0113e-006
0.217	6.63566e-006	3.3533e-006	1.01104e-006
0.218	6.63637e-006	3.35284e-006	1.01079e-006
0.219	6.63705e-006	3.3524e-006	1.01055e-006
0.22	6.63772e-006	3.35197e-006	1.01031e-006
0.221	6.63838e-006	3.35155e-006	1.01007e-006
0.222	6.63902e-006	3.35114e-006	1.00985e-006
0.223	6.63964e-006	3.35074e-006	1.00962e-006
0.224	6.64025e-006	3.35034e-006	1.00941e-006
0.225	6.64085e-006	3.34996e-006	1.00919e-006
0.226	6.64143e-006	3.34958e-006	1.00899e-006
0.227	6.642e-006	3.34921e-006	1.00878e-006
0.228	6.64256e-006	3.34885e-006	1.00858e-006
0.229	6.64311e-006	3.3485e-006	1.00839e-006
0.23	6.64364e-006	3.34816e-006	1.0082e-006
0.231	6.64416e-006	3.34782e-006	1.00801e-006
0.232	6.64467e-006	3.3475e-006	1.00783e-006
0.233	6.64517e-006	3.34718e-006	1.00766e-006
0.234	6.64565e-006	3.34686e-006	1.00748e-006
0.235	6.64613e-006	3.34656e-006	1.00731e-006
0.236	6.64659e-006	3.34626e-006	1.00715e-006
0.237	6.64705e-006	3.34597e-006	1.00699e-006
0.238	6.64749e-006	3.34568e-006	1.00683e-006
0.239	6.64793e-006	3.3454e-006	1.00667e-006
0.24	6.64835e-006	3.34513e-006	1.00652e-006
0.241	6.64876e-006	3.34486e-006	1.00638e-006
0.242	6.64917e-006	3.3446e-006	1.00623e-006
0.243	6.64956e-006	3.34435e-006	1.00609e-006
0.244	6.64995e-006	3.3441e-006	1.00595e-006
0.245	6.65033e-006	3.34385e-006	1.00582e-006
0.246	6.6507e-006	3.34362e-006	1.00569e-006
0.247	6.65106e-006	3.34338e-006	1.00556e-006
0.248	6.65141e-006	3.34316e-006	1.00543e-006
0.249	6.65176e-006	3.34293e-006	1.00531e-006
0.25	6.65209e-006	3.34272e-006	1.00519e-006
0.251	6.65242e-006	3.3425e-006	1.00507e-006
0.252	6.65275e-006	3.3423e-006	1.00496e-006
0.253	6.65306e-006	3.34209e-006	1.00485e-006
0.254	6.65337e-006	3.3419e-006	1.00474e-006
0.255	6.65367e-006	3.3417e-006	1.00463e-006
0.256	6.65396e-006	3.34151e-006	1.00452e-006
0.257	6.65425e-006	3.34133e-006	1.00442e-006
0.258	6.65453e-006	3.34115e-006	1.00432e-006
0.259	6.65481e-006	3.34097e-006	1.00422e-006
0.26	6.65507e-006	3.3408e-006	1.00413e-006
0.261	6.65534e-006	3.34063e-006	1.00404e-006
0.262	6.65559e-006	3.34046e-006	1.00394e-006
0.263	6.65584e-006	3.3403e-006	1.00385e-006
0.264	6.65609e-006	3.34015e-006	1.00377e-006
0.265	6.65633e-006	3.33999e-006	1.00368e-006
0.266	6.65656e-006	3.33984e-006	1.0036e-006
0.267	6.65679e-006	3.33969e-006	1.00352e-006
0.268	6.65701e-006	3.33955e-006	1.00344e-006
0.269	6.65723e-006	3.33941e-006	1.00336e-006
0.27	6.65744e-006	3.33927e-006	1.00328e-006
0.271	6.65765e-006	3.33914e-006	1.00321e-006
0.272	6.65786e-006	3.33901e-006	1.00314e-006
0.273	6.65806e-006	3.33888e-006	1.00307e-006
0.274	6.65825e-006	3.33875e-006	1.003e-006
0.275	6.65844e-006	3.33863e-006	1.00293e-006
0.276	6.65863e-006	3.33851e-006	1.00286e-006
0.277	6.65881e-006	3.33839e-006	1.0028e-006
0.278	6.65899e-006	3.33828e-006	1.00273e-006
0.279	6.65916e-006	3.33817e-006	1.00267e-006
0.28	6.65933e-006	3.33806e-006	1.00261e-006
0.281	6.6595e-006	3.33795e-006	1.00255e-006
0.282	6.65966e-006	3.33785e-006	1.0025e-006
0.283	6.65982e-006	3.33774e-006	1.00244e-006
0.284	6.65997e-006	3.33764e-006	1.00238e-006
0.285	6.66012e-006	3.33755e-006	1.00233e-006
0.286	6.66027e-006	3.33745e-006	1.00228e-006
0.287	6.66042e-006	3.33736e-006	1.00223e-006
0.288	6.66056e-006	3.33727e-006	1.00218e-006
0.289	6.6607e-006	3.33718e-006	1.00213e-006
0.29	6.66083e-006	3.33709e-006	1.00208e-006
0.291	6.66096e-006	3.33701e-006	1.00203e-006
0.292	6.66109e-006	3.33692e-006	1.00199e-006
0.293	6.66122e-006	3.33684e-006	1.00194e-006
0.294	6.66134e-006	3.33676e-006	1.0019e-006
0.295	6.66146e-006	3.33669e-006	1.00185e-006
0.296	6.66158e-006	3.33661e-006	1.00181e-006
0.297	6.66169e-006	3.33654e-006	1.00177e-006
0.298	6.66181e-006	3.33646e-006	1.00173e-006
0.299	6.66192e-006	3.33639e-006	1.00169e-006
0.3	6.66202e-006	3.33632e-006	1.00165e-006
0.301	6.66213e-006	3.33625e-006	1.00162e-006
0.302	6.66223e-006	3.33619e-006	1.00158e-006
0.303	6.66233e-006	3.33612e-006	1.00154e-006
0.304	6.66243e-006	3.33606e-006	1.00151e-006
0.305	6.66253e-006	3.336e-006	1.00147e-006
0.306	6.66262e-006	3.33594e-006	1.00144e-006
0.307	6.66271e-006	3.33588e-006	1.00141e-006
0.308	6.6628e-006	3.33582e-006	1.00138e-006
0.309	6.66289e-006	3.33577e-006	1.00135e-006
0.31	6.66297e-006	3.33571e-006	1.00132e-006
0.311	6.66306e-006	3.33566e-006	1.00129e-006
0.312	6.66314e-006	3.3356e-006	1.00126e-006
0.313	6.66322e-006	3.33555e-006	1.00123e-006
0.314	6.6633e-006	3.3355e-006	1.0012e-006
0.315	6.66337e-006	3.33545e-006	1.00117e-006
0.316	6.66345e-006	3.33541e-006	1.00115e-006
0.317	6.66352e-006	3.33536e-006	1.00112e-006
0.318	6.66359e-006	3.33531e-006	1.0011e-006
0.319	6.66366e-006	3.33527e-006	1.00107e-006
0.32	6.66373e-006	3.33522e-006	1.00105e-006
0.321	6.6638e-006	3.33518e-006	1.00102e-006
0.322	6.66386e-006	3.33514e-006	1.001e-006
0.323	6.66392e-006	3.3351e-006	1.00098e-006
0.324	6.66399e-006	3.33506e-006	1.00095e-006
0.325	6.66405e-006	3.33502e-006	1.00093e-006
0.326	6.66411e-006	3.33498e-006	1.00091e-006
0.327	6.66416e-006	3.33495e-006	1.00089e-006
0.328	6.66422e-006	3.33491e-006	1.00087e-006
0.329	6.66428e-006	3.33487e-006	1.00085e-006
0.33	6.66433e-006	3.33484e-006	1.00083e-006
0.331	6.66438e-006	3.3348e-006	1.00081e-006
0.332	6.66443e-006	3.33477e-006	1.00079e-006
0.333	6.66448e-006	3.33474e-006	1.00078e-006
0.334	6.66453e-006	3.33471e-006	1.00076e-006
0.335	6.66458e-006	3.33468e-006	1.00074e-006
0.336	6.66463e-006	3.33465e-006	1.00073e-006
0.337	6.66468e-006	3.33462e-006	1.00071e-006
0.338	6.66472e-006	3.33459e-006	1.00069e-006
0.339	6.66476e-006	3.33456e-006	1.00068e-006
0.34	6.66481e-006	3.33453e-006	1.00066e-006
0.341	6.66485e-006	3.3345e-006	1.00065e-006
0.342	6.66489e-006	3.33448e-006	1.00063e-006
0.343	6.66493e-006	3.33445e-006	1.00062e-006
0.344	6.66497e-006	3.33443e-006	1.0006e-006
0.345	6.66501e-006	3.3344e-006	1.00059e-006
0.346	6.66505e-006	3.33438e-006	1.00058e-006
0.347	6.66508e-006	3.33435e-006	1.00056e-006
0.348	6.66512e-006	3.33433e-006	1.00055e-006
0.349	6.66515e-006	3.33431e-006	1.00054e-006
0.35	6.66519e-006	3.33429e-006	1.00053e-006
0.351	6.66522e-006	3.33426e-006	1.00051e-006
0.352	6.66525e-006	3.33424e-006	1.0005e-006
0.353	6.66529e-006	3.33422e-006	1.00049e-006
0.354	6.66532e-006	3.3342e-006	1.00048e-006
0.355	6.66535e-006	3.33418e-006	1.00047e-006
0.356	6.66538e-006	3.33416e-006	1.00046e-006
0.357	6.66541e-006	3.33414e-006	1.00045e-006
0.358	6.66544e-006	3.33413e-006	1.00044e-006
0.359	6.66546e-006	3.33411e-006	1.00043e-006
0.36	6.66549e-006	3.33409e-006	1.00042e-006
0.361	6.66552e-006	3.33407e-006	1.00041e-006
0.362	6.66554e-006	3.33406e-006	1.0004e-006
0.363	6.66557e-006	3.33404e-006	1.00039e-006
0.364	6.66559e-006	3.33402e-006	1.00038e-006
0.365	6.66562e-006	3.33401e-006	1.00037e-006
0.366	6.66564e-006	3.33399e-006	1.00037e-006
0.367	6.66566e-006	3.33398e-006	1.00036e-006
0.368	6.66569e-006	3.33396e-006	1.00035e-006
0.369	6.66571e-006	3.33395e-006	1.00034e-006
0.37	6.66573e-006	3.33394e-006	1.00033e-006
0.371	6.66575e-006	3.33392e-006	1.00033e-006
0.372	6.66577e-006	3.33391e-006	1.00032e-006
0.373	6.66579e-006	3.3339e-006	1.00031e-006
0.374	6.66581e-006	3.33388e-006	1.0003e-006
0.375	6.66583e-006	3.33387e-006	1.0003e-006
0.376	6.66585e-006	3.33386e-006	1.00029e-006
0.377	6.66587e-006	3.33385e-006	1.00028e-006
0.378	6.66589e-006	3.33384e-006	1.00028e-006
0.379	6.6659e-006	3.33382e-006	1.00027e-006
0.38	6.66592e-006	3.33381e-006	1.00027e-006
0.381	6.66594e-006	3.3338e-006	1.00026e-006
0.382	6.66596e-006	3.33379e-006	1.00025e-006
0.383	6.66597e-006	3.33378e-006	1.00025e-006
0.384	6.66599e-006	3.33377e-006	1.00024e-006
0.385	6.666e-006	3.33376e-006	1.00024e-006
0.386	6.66602e-006	3.33375e-006	1.00023e-006
0.387	6.66603e-006	3.33374e-006	1.00023e-006
0.388	6.66605e-006	3.33373e-006	1.00022e-006
0.389	6.66606e-006	3.33372e-006	1.00022e-006
0.39	6.66607e-006	3.33371e-006	1.00021e-006
0.391	6.66609e-006	3.33371e-006	1.00021e-006
0.392	6.6661e-006	3.3337e-006	1.0002e-006
0.393	6.66611e-006	3.33369e-006	1.0002e-006
0.394	6.66613e-006	3.33368e-006	1.00019e-006
0.395	6.66614e-006	3.33367e-006	1.00019e-006
0.396	6.66615e-006	3.33367e-006	1.00018e-006
0.397	6.66616e-006	3.33366e-006	1.00018e-006
0.398	6.66617e-006	3.33365e-006	1.00018e-006
0.399	6.66618e-006	3.33364e-006	1.00017e-006
0.4	6.6662e-006	3.33364e-006	1.00017e-006
0.401	6.66621e-006	3.33363e-006	1.00016e-006
0.402	6.66622e-006	3.33362e-006	1.00016e-006
0.403	6.66623e-006	3.33362e-006	1.00016e-006
0.404	6.66624e-006	3.33361e-006	1.00015e-006
0.405	6.66625e-006	3.3336e-006	1.00015e-006
0.406	6.66626e-006	3.3336e-006	1.00015e-006
0.407	6.66627e-006	3.33359e-006	1.00014e-006
0.408	6.66627e-006	3.33359e-006	1.00014e-006
0.409	6.66628e-006	3.33358e-006	1.00014e-006
0.41	6.66629e-006	3.33357e-006	1.00013e-006
0.411	6.6663e-006	3.33357e-006	1.00013e-006
0.412	6.66631e-006	3.33356e-006	1.00013e-006
0.413	6.66632e-006	3.33356e-006	1.00012e-006
0.414	6.66633e-006	3.33355e-006	1.00012e-006
0.415	6.66633e-006	3.33355e-006	1.00012e-006
0.416	6.66634e-006	3.33354e-006	1.00012e-006
0.417	6.66635e-006	3.33354e-006	1.00011e-006
0.418	6.66636e-006	3.33353e-006	1.00011e-006
0.419	6.66636e-006	3.33353e-006	1.00011e-006
0.42	6.66637e-006	3.33353e-006	1.00011e-006
0.421	6.66638e-006	3.33352e-006	1.0001e-006
0.422	6.66638e-006	3.33352e-006	1.0001e-006
0.423	6.66639e-006	3.33351e-006	1.0001e-006
0.424	6.66639e-006	3.33351e-006	1.0001e-006
0.425	6.6664e-006	3.3335e-006	1.00009e-006
0.426	6.66641e-006	3.3335e-006	1.00009e-006
0.427	6.66641e-006	3.3335e-006	1.00009e-006
0.428	6.66642e-006	3.33349e-006	1.00009e-006
0.429	6.66642e-006	3.33349e-006	1.00009e-006
0.43	6.66643e-006	3.33349e-006	1.00008e-006
0.431	6.66643e-006	3.33348e-006	1.00008e-006
0.432	6.66644e-006	3.33348e-006	1.00008e-006
0.433	6.66644e-006	3.33348e-006	1.00008e-006
0.434	6.66645e-006	3.33347e-006	1.00008e-006
0.435	6.66645e-006	3.33347e-006	1.00008e-006
0.436	6.66646e-006	3.33347e-006	1.00007e-006
0.437	6.66646e-006	3.33346e-006	1.00007e-006
0.438	6.66647e-006	3.33346e-006	1.00007e-006
0.439	6.66647e-006	3.33346e-006	1.00007e-006
0.44	6.66648e-006	3.33346e-006	1.00007e-006
0.441	6.66648e-006	3.33345e-006	1.00007e-006
0.442	6.66649e-006	3.33345e-006	1.00006e-006
0.443	6.66649e-006	3.33345e-006	1.00006e-006
0.444	6.66649e-006	3.33344e-006	1.00006e-006
0.445	6.6665e-006	3.33344e-006	1.00006e-006
0.446	6.6665e-006	3.33344e-006	1.00006e-006
0.447	6.66651e-006	3.33344e-006	1.00006e-006
